section#      z(cm)
1            -36.7
2            -32.4
3            -28.1
4            -23.8
5            -19.5
6              -13
7             -6.5
8                0
9              6.5
10              13
11            19.5
12              26
13            32.5
14              39
15             -40
 
